# Time	HemO	HemO3	HemO2	Hill4	HemO4	Values[Y]	Values[MM]	Values[Y4]	Values[YHill]	
0	0	0	0	0	0	0	0.666667	0	0	
1e-09	9.74e-10	9.74e-30	9.74e-20	8e-12	0	1e-10	0.666667	0	8e-12	
2e-09	1.948e-09	3.896e-29	2.922e-19	1.6e-11	2.922e-39	2e-10	0.666667	3e-40	1.6e-11	
1.0002e-05	9.74194e-06	2.43597e-18	4.87194e-12	8.0016e-08	1.21799e-24	1.0002e-06	0.666667	1.2505e-25	8.0016e-08	
2.0002e-05	1.94819e-05	1.46138e-17	1.94838e-11	1.60016e-07	9.7429e-24	2.0002e-06	0.666667	1.0003e-24	1.60016e-07	
3.0002e-05	2.92219e-05	4.62735e-17	4.38357e-11	2.40016e-07	4.01866e-23	3.00019e-06	0.666667	4.12593e-24	2.40016e-07	
0.000130002	0.00012662	3.52839e-15	8.23041e-10	1.04002e-06	1.44638e-20	1.3e-05	0.666667	1.48499e-21	1.04002e-06	
0.000230002	0.000224017	1.97127e-14	2.5762e-09	1.84001e-06	1.20084e-19	2.29997e-05	0.666667	1.23289e-20	1.84001e-06	
0.000330002	0.000321411	5.82977e-14	5.30326e-09	2.64001e-06	4.91466e-19	3.29991e-05	0.666667	5.04585e-20	2.64001e-06	
0.000430002	0.000418804	1.29022e-13	9.0042e-09	3.44001e-06	1.40127e-18	4.29984e-05	0.666667	1.43868e-19	3.44001e-06	
0.00143	0.00139262	4.74592e-12	9.95679e-08	1.144e-05	1.71296e-16	0.00014298	0.666667	1.75869e-17	1.144e-05	
0.00243	0.00236625	2.32846e-11	2.87476e-07	1.94398e-05	1.41429e-15	0.000242941	0.666667	1.45204e-16	1.94398e-05	
0.00343	0.00333968	6.54737e-11	5.72689e-07	2.74396e-05	5.61426e-15	0.000342883	0.666667	5.76413e-16	2.74396e-05	
0.00443	0.00431291	1.41036e-10	9.55169e-07	3.54394e-05	1.56201e-14	0.000442804	0.666667	1.60371e-15	3.54394e-05	
0.00543	0.00528595	2.59689e-10	1.43488e-06	4.34391e-05	3.52544e-14	0.000542705	0.666667	3.61955e-15	4.34391e-05	
0.01543	0.0150057	5.94978e-09	1.15709e-05	0.000123432	2.29531e-12	0.00154062	0.666667	2.35658e-13	0.000123432	
0.02543	0.024706	2.65944e-08	3.1387e-05	0.000203419	1.69117e-11	0.00253655	0.666667	1.73631e-12	0.000203419	
0.03543	0.0343869	7.18149e-08	6.08445e-05	0.0002834	6.36325e-11	0.00353048	0.666667	6.53311e-12	0.0002834	
0.04543	0.0440486	1.51174e-07	9.99048e-05	0.000363374	1.71774e-10	0.00452244	0.666667	1.7636e-11	0.000363374	
0.05543	0.0536909	2.74179e-07	0.00014853	0.000443342	3.80154e-10	0.00551242	0.666667	3.90301e-11	0.000443342	
0.06543	0.0633141	4.50278e-07	0.00020668	0.000523303	7.37021e-10	0.00650042	0.666667	7.56695e-11	0.000523303	
0.136439	0.131099	4.03971e-06	0.000890278	0.00109091	1.3798e-08	0.0134598	0.666667	1.41664e-09	0.00109091	
0.207447	0.197934	1.40495e-05	0.00203885	0.0016582	7.30122e-08	0.0203217	0.666667	7.49612e-09	0.0016582	
0.278456	0.263836	3.36212e-05	0.00363925	0.00222517	2.34691e-07	0.0270879	0.666667	2.40955e-08	0.00222517	
0.349465	0.328822	6.57615e-05	0.00567867	0.00279181	5.76494e-07	0.0337599	0.666667	5.91883e-08	0.00279181	
0.420473	0.392907	0.000113346	0.00814461	0.00335814	1.19634e-06	0.0403395	0.666667	1.22827e-07	0.00335814	
0.491482	0.456108	0.000179122	0.0110249	0.00392414	2.21134e-06	0.0468283	0.666667	2.27037e-07	0.00392414	
0.562491	0.518439	0.000265717	0.0143076	0.00448982	3.75681e-06	0.0532278	0.666667	3.8571e-07	0.00448982	
0.707284	0.642906	0.000517132	0.0222003	0.0056423	9.20559e-06	0.0660068	0.666667	9.45133e-07	0.0056423	
0.852078	0.763944	0.000885206	0.0316238	0.00679344	1.90081e-05	0.0784337	0.666667	1.95155e-06	0.00679344	
0.996871	0.881673	0.00138788	0.042488	0.00794325	3.49101e-05	0.0905208	0.666667	3.5842e-06	0.00794325	
1.14166	0.996205	0.00204135	0.0547075	0.00909173	5.88775e-05	0.10228	0.666667	6.04492e-06	0.00909173	
1.28646	1.10765	0.00286021	0.068201	0.0102389	9.30691e-05	0.113722	0.666667	9.55535e-06	0.0102389	
1.43125	1.21612	0.00385752	0.0828914	0.0113847	0.000139811	0.124858	0.666667	1.43543e-05	0.0113847	
1.57604	1.32171	0.00504493	0.0987053	0.0125292	0.000201574	0.135699	0.666667	2.06955e-05	0.0125292	
1.72084	1.42452	0.00643278	0.115573	0.0136724	0.000280951	0.146254	0.666667	2.88451e-05	0.0136724	
2.10119	1.68201	0.0110968	0.164426	0.016669	0.000593411	0.172691	0.666667	6.09251e-05	0.016669	
2.48154	1.92255	0.0173327	0.219012	0.0196565	0.00109746	0.197387	0.666667	0.000112676	0.0196565	
2.86189	2.14755	0.0252251	0.278375	0.022635	0.00184634	0.220488	0.666667	0.000189562	0.022635	
3.24224	2.35833	0.0348219	0.341684	0.0256044	0.00289372	0.242128	0.666667	0.000297096	0.0256044	
3.62259	2.55604	0.0461409	0.408213	0.0285648	0.0042925	0.262427	0.666667	0.000440708	0.0285648	
4.00294	2.74176	0.0591757	0.477331	0.0315162	0.00609378	0.281495	0.666667	0.000625645	0.0315162	
4.38328	2.91645	0.0739006	0.548489	0.0344586	0.00834615	0.29943	0.666667	0.000856894	0.0344586	
4.76363	3.08098	0.0902751	0.621212	0.0373921	0.0110951	0.316322	0.666667	0.00113913	0.0373921	
5.14398	3.23614	0.108247	0.695087	0.0403166	0.0143828	0.332252	0.666667	0.00147667	0.0403166	
5.65829	3.43232	0.134978	0.796187	0.0442571	0.0197526	0.352395	0.666667	0.00202798	0.0442571	
6.17259	3.61429	0.164348	0.898006	0.0481813	0.0262606	0.371077	0.666667	0.00269616	0.0481813	
6.68689	3.78346	0.196177	0.99994	0.0520895	0.0339777	0.388445	0.666667	0.00348847	0.0520895	
7.2012	3.94106	0.230277	1.1015	0.0559815	0.0429618	0.404627	0.666667	0.00441086	0.0559815	
7.7155	4.08821	0.266462	1.20229	0.0598577	0.0532583	0.419734	0.666667	0.005468	0.0598577	
8.2298	4.22587	0.304546	1.30199	0.0637179	0.0649015	0.433867	0.666667	0.00666339	0.0637179	
8.7441	4.35491	0.344351	1.40037	0.0675622	0.0779143	0.447117	0.666667	0.00799942	0.0675622	
9.25841	4.47612	0.385707	1.49722	0.0713908	0.0923102	0.45956	0.666667	0.00947743	0.0713908	
9.84022	4.60464	0.434157	1.60477	0.0757029	0.110268	0.472756	0.666667	0.0113211	0.0757029	
10.422	4.72489	0.484164	1.71004	0.0799951	0.129995	0.485101	0.666667	0.0133465	0.0799951	
11.0038	4.83764	0.535525	1.81291	0.0842673	0.151472	0.496677	0.666667	0.0155516	0.0842673	
11.5857	4.94359	0.588055	1.91335	0.0885196	0.174673	0.507555	0.666667	0.0179336	0.0885196	
12.1675	5.04335	0.641583	2.0113	0.0927523	0.199561	0.517797	0.666667	0.0204888	0.0927523	
12.7493	5.13746	0.695955	2.10678	0.0969652	0.226092	0.52746	0.666667	0.0232128	0.0969652	
13.3311	5.2264	0.751032	2.1998	0.101159	0.254218	0.536592	0.666667	0.0261004	0.101159	
14.0752	5.33333	0.822301	2.31524	0.106493	0.292427	0.547569	0.666667	0.0300233	0.106493	
14.8193	5.43331	0.894287	2.42682	0.111797	0.333034	0.557834	0.666667	0.0341924	0.111797	
15.5634	5.52704	0.966787	2.53465	0.117068	0.375911	0.567458	0.666667	0.0385945	0.117068	
16.3076	5.61514	1.03963	2.63887	0.122309	0.420925	0.576504	0.666667	0.0432162	0.122309	
17.0517	5.69815	1.11267	2.73963	0.127518	0.467944	0.585025	0.666667	0.0480435	0.127518	
17.7958	5.77652	1.18577	2.83708	0.132696	0.516831	0.593072	0.666667	0.0530627	0.132696	
18.7166	5.86771	1.27617	2.95333	0.139062	0.579713	0.602434	0.666667	0.0595188	0.139062	
19.6374	5.95314	1.36633	3.06502	0.14538	0.645007	0.611205	0.666667	0.0662224	0.14538	
20.5582	6.03341	1.45612	3.17246	0.151653	0.712472	0.619446	0.666667	0.0731491	0.151653	
21.4789	6.10903	1.54542	3.2759	0.157879	0.78188	0.627211	0.666667	0.0802751	0.157879	
22.3997	6.18048	1.63416	3.3756	0.16406	0.853014	0.634546	0.666667	0.0875784	0.16406	
23.6965	6.27476	1.75802	3.51015	0.172687	0.955728	0.644226	0.666667	0.098124	0.172687	
24.9933	6.36249	1.88046	3.6384	0.181226	1.06093	0.653233	0.666667	0.108925	0.181226	
26.2901	6.44448	2.00138	3.76092	0.189676	1.16813	0.661651	0.666667	0.119931	0.189676	
27.5869	6.52142	2.12069	3.87822	0.198039	1.2769	0.66955	0.666667	0.131099	0.198039	
28.8837	6.59389	2.23835	3.99077	0.206316	1.38685	0.676991	0.666667	0.142387	0.206316	
30.622	6.6849	2.39344	4.13491	0.217277	1.53549	0.686335	0.666667	0.157648	0.217277	
32.3603	6.7698	2.5455	4.27213	0.228086	1.6849	0.695052	0.666667	0.172988	0.228086	
34.0986	6.84943	2.69453	4.4032	0.238746	1.83449	0.703227	0.666667	0.188346	0.238746	
35.8368	6.92449	2.84055	4.52875	0.249259	1.98374	0.710933	0.666667	0.20367	0.249259	
37.5751	6.99555	2.98359	4.64935	0.259627	2.13224	0.718229	0.666667	0.218915	0.259627	
39.6362	7.07528	3.1494	4.78656	0.271735	2.30684	0.726415	0.666667	0.236842	0.271735	
41.6973	7.15074	3.31117	4.91814	0.283644	2.47941	0.734162	0.666667	0.25456	0.283644	
43.7584	7.22247	3.46898	5.04463	0.295359	2.64959	0.741526	0.666667	0.272032	0.295359	
45.8195	7.2909	3.62294	5.16651	0.306883	2.8171	0.748553	0.666667	0.28923	0.306883	
47.8806	7.35643	3.77312	5.28417	0.318218	2.98172	0.75528	0.666667	0.306131	0.318218	
50.7003	7.44188	3.97263	5.43891	0.333425	3.20197	0.764053	0.666667	0.328744	0.333425	
53.5201	7.52306	4.16548	5.58705	0.348293	3.41627	0.772388	0.666667	0.350746	0.348293	
56.3398	7.60046	4.35188	5.72919	0.36283	3.62446	0.780334	0.666667	0.372121	0.36283	
59.1595	7.67447	4.53205	5.86576	0.377042	3.82649	0.787933	0.666667	0.392863	0.377042	
61.9793	7.74539	4.7062	5.99717	0.390937	4.02237	0.795215	0.666667	0.412974	0.390937	
64.799	7.81349	4.87452	6.12373	0.404523	4.21216	0.802206	0.666667	0.43246	0.404523	
67.8933	7.88521	5.05276	6.25735	0.419082	4.41352	0.80957	0.666667	0.453133	0.419082	
70.9876	7.95399	5.22447	6.38577	0.433286	4.60781	0.816632	0.666667	0.473081	0.433286	
74.0818	8.02004	5.38989	6.50926	0.447142	4.7952	0.823413	0.666667	0.492321	0.447142	
77.1761	8.0835	5.54925	6.62807	0.46066	4.9759	0.829928	0.666667	0.510872	0.46066	
80.2704	8.14451	5.70277	6.7424	0.473847	5.15009	0.836192	0.666667	0.528757	0.473847	
82.3168	8.18358	5.8012	6.81565	0.482391	5.26183	0.840204	0.666667	0.540229	0.482391	
84.3632	8.22167	5.89723	6.88709	0.490795	5.37087	0.844114	0.666667	0.551424	0.490795	
86.4096	8.2588	5.99092	6.95676	0.499064	5.47728	0.847926	0.666667	0.562349	0.499064	
88.456	8.295	6.08232	7.02471	0.507198	5.58111	0.851643	0.666667	0.57301	0.507198	
91.5429	8.34792	6.216	7.12405	0.519219	5.733	0.857076	0.666667	0.588604	0.519219	
94.6298	8.39888	6.3448	7.21974	0.530946	5.87937	0.862308	0.666667	0.603632	0.530946	
97.7167	8.44795	6.46888	7.3119	0.542388	6.02041	0.867346	0.666667	0.618112	0.542388	
100.804	8.49521	6.58844	7.40069	0.55355	6.15631	0.872199	0.666667	0.632065	0.55355	
106.54	8.57848	6.79913	7.55713	0.573576	6.39584	0.880748	0.666667	0.656657	0.573576	
112.277	8.65616	6.99574	7.7031	0.592704	6.61939	0.888723	0.666667	0.679609	0.592704	
118.014	8.72863	7.1792	7.83929	0.610974	6.828	0.896164	0.666667	0.701027	0.610974	
123.751	8.79626	7.3504	7.96637	0.628425	7.02267	0.903107	0.666667	0.721013	0.628425	
125.185	8.81245	7.39138	7.99678	0.632664	7.06927	0.904769	0.666667	0.725797	0.632664	
126.619	8.82836	7.43166	8.02668	0.636854	7.11507	0.906402	0.666667	0.7305	0.636854	
128.053	8.84399	7.47125	8.05606	0.640997	7.16008	0.908007	0.666667	0.735121	0.640997	
129.487	8.85936	7.51016	8.08494	0.645092	7.20433	0.909585	0.666667	0.739664	0.645092	
130.921	8.87446	7.5484	8.11333	0.649141	7.24781	0.911136	0.666667	0.744128	0.649141	
132.469	8.89047	7.58892	8.1434	0.653457	7.29389	0.912779	0.666667	0.748859	0.653457	
134.016	8.90617	7.62869	8.17292	0.65772	7.33911	0.914391	0.666667	0.753502	0.65772	
135.563	8.92159	7.66772	8.20189	0.66193	7.38349	0.915974	0.666667	0.758059	0.66193	
137.11	8.93672	7.70603	8.23033	0.666089	7.42706	0.917528	0.666667	0.762532	0.666089	
138.782	8.95275	7.74663	8.26046	0.670524	7.47322	0.919174	0.666667	0.767272	0.670524	
140.453	8.96847	7.78641	8.28999	0.674901	7.51847	0.920787	0.666667	0.771917	0.674901	
142.124	8.98387	7.82541	8.31893	0.679219	7.56281	0.922368	0.666667	0.776469	0.679219	
147.715	9.03317	7.95025	8.4116	0.69325	7.70477	0.92743	0.666667	0.791044	0.69325	
153.306	9.07926	8.06696	8.49822	0.706668	7.83749	0.932163	0.666667	0.80467	0.706668	
158.897	9.12235	8.17606	8.5792	0.719498	7.96155	0.936586	0.666667	0.817408	0.719498	
164.488	9.16263	8.27804	8.65489	0.731768	8.07752	0.940722	0.666667	0.829315	0.731768	
174.641	9.22917	8.44654	8.77996	0.752693	8.26914	0.947554	0.666667	0.848987	0.752693	
177.179	9.24457	8.48554	8.80891	0.757664	8.31348	0.949135	0.666667	0.85354	0.757664	
179.717	9.25951	8.52337	8.83698	0.762535	8.35649	0.950669	0.666667	0.857956	0.762535	
182.255	9.274	8.56005	8.86421	0.767308	8.39821	0.952156	0.666667	0.862239	0.767308	
184.793	9.28805	8.59562	8.89061	0.771986	8.43866	0.953599	0.666667	0.866393	0.771986	
187.332	9.30168	8.63013	8.91622	0.776569	8.4779	0.954998	0.666667	0.870421	0.776569	
188.876	9.30976	8.6506	8.93142	0.779311	8.50118	0.955828	0.666667	0.872811	0.779311	
190.419	9.3177	8.6707	8.94634	0.78202	8.52404	0.956643	0.666667	0.875158	0.78202	
191.963	9.32549	8.69043	8.96098	0.784696	8.54647	0.957443	0.666667	0.877461	0.784696	
193.507	9.33314	8.70979	8.97535	0.787339	8.56849	0.958228	0.666667	0.879722	0.787339	
195.125	9.341	8.7297	8.99013	0.790074	8.59113	0.959035	0.666667	0.882046	0.790074	
196.743	9.34871	8.74923	9.00462	0.792774	8.61334	0.959827	0.666667	0.884326	0.792774	
198.361	9.35628	8.76838	9.01884	0.795439	8.63511	0.960603	0.666667	0.886562	0.795439	
204.854	9.38518	8.84156	9.07315	0.805793	8.71833	0.963571	0.666667	0.895106	0.805793	
211.347	9.4119	8.90923	9.12338	0.815623	8.79529	0.966315	0.666667	0.903007	0.815623	
217.84	9.43662	8.97181	9.16983	0.824955	8.86645	0.968852	0.666667	0.910313	0.824955	
224.332	9.45947	9.02967	9.21278	0.833815	8.93224	0.971198	0.666667	0.917068	0.833815	
236.14	9.4967	9.12396	9.28276	0.848794	9.03947	0.975021	0.666667	0.928077	0.848794	
239.092	9.50521	9.1455	9.29876	0.852323	9.06397	0.975895	0.666667	0.930592	0.852323	
242.043	9.51343	9.1663	9.31419	0.85577	9.08761	0.976738	0.666667	0.93302	0.85577	
244.995	9.52135	9.18637	9.32908	0.859136	9.11043	0.977552	0.666667	0.935363	0.859136	
247.947	9.529	9.20573	9.34345	0.862423	9.13245	0.978337	0.666667	0.937624	0.862423	
250.899	9.53638	9.22442	9.35732	0.865634	9.1537	0.979094	0.666667	0.939805	0.865634	
252.398	9.54003	9.23366	9.36418	0.867236	9.16421	0.979469	0.666667	0.940884	0.867236	
253.897	9.54361	9.24273	9.37091	0.868819	9.17453	0.979837	0.666667	0.941943	0.868819	
255.396	9.54713	9.25164	9.37753	0.870383	9.18466	0.980198	0.666667	0.942984	0.870383	
256.895	9.55059	9.26039	9.38402	0.871928	9.19461	0.980553	0.666667	0.944005	0.871928	
258.459	9.55413	9.26935	9.39067	0.87352	9.2048	0.980917	0.666667	0.945051	0.87352	
260.022	9.5576	9.27814	9.3972	0.875092	9.2148	0.981273	0.666667	0.946078	0.875092	
261.586	9.56101	9.28677	9.4036	0.876644	9.22461	0.981623	0.666667	0.947085	0.876644	
267.823	9.57398	9.31962	9.42798	0.882648	9.26196	0.982955	0.666667	0.95092	0.882648	
274.06	9.58601	9.35008	9.45059	0.88836	9.2966	0.98419	0.666667	0.954476	0.88836	
280.297	9.59717	9.37834	9.47156	0.893794	9.32873	0.985336	0.666667	0.957775	0.893794	
286.535	9.60752	9.40455	9.49102	0.898963	9.35854	0.986398	0.666667	0.960835	0.898963	
292.099	9.61612	9.42632	9.50718	0.903363	9.3833	0.987281	0.666667	0.963378	0.903363	
297.664	9.62416	9.44668	9.52229	0.90757	9.40645	0.988107	0.666667	0.965755	0.90757	
303.228	9.63168	9.46572	9.53643	0.911595	9.42811	0.988879	0.666667	0.967978	0.911595	
308.793	9.63871	9.48353	9.54964	0.915444	9.44835	0.989601	0.666667	0.970057	0.915444	
311.145	9.64154	9.4907	9.55496	0.91702	9.45651	0.989892	0.666667	0.970894	0.91702	
313.496	9.6443	9.49767	9.56014	0.918566	9.46444	0.990174	0.666667	0.971708	0.918566	
315.847	9.64697	9.50445	9.56517	0.920084	9.47214	0.990449	0.666667	0.972499	0.920084	
318.472	9.64987	9.51179	9.57062	0.921744	9.48049	0.990747	0.666667	0.973356	0.921744	
321.097	9.65268	9.5189	9.57589	0.92337	9.48858	0.991035	0.666667	0.974186	0.92337	
323.721	9.6554	9.52579	9.58101	0.924963	9.49641	0.991314	0.666667	0.974991	0.924963	
333.261	9.66459	9.54907	9.59829	0.930476	9.52288	0.992258	0.666667	0.977709	0.930476	
335.645	9.66673	9.55448	9.60231	0.931789	9.52904	0.992478	0.666667	0.978341	0.931789	
338.03	9.66881	9.55974	9.60621	0.933078	9.53502	0.992691	0.666667	0.978955	0.933078	
340.415	9.67083	9.56485	9.61	0.934343	9.54083	0.992898	0.666667	0.979551	0.934343	
342.8	9.67279	9.56982	9.61369	0.935584	9.54648	0.9931	0.666667	0.980131	0.935584	
344.447	9.67411	9.57317	9.61617	0.936427	9.55029	0.993235	0.666667	0.980522	0.936427	
346.095	9.67541	9.57645	9.61861	0.93726	9.55402	0.993369	0.666667	0.980905	0.93726	
347.742	9.67668	9.57967	9.621	0.938081	9.55768	0.993499	0.666667	0.981281	0.938081	
350.962	9.67909	9.58578	9.62553	0.939656	9.56462	0.993747	0.666667	0.981994	0.939656	
354.183	9.68141	9.59165	9.62989	0.941191	9.57131	0.993985	0.666667	0.98268	0.941191	
357.403	9.68365	9.59731	9.63409	0.942686	9.57773	0.994214	0.666667	0.98334	0.942686	
367.742	9.69025	9.61403	9.6465	0.947236	9.59675	0.994893	0.666667	0.985293	0.947236	
370.327	9.69178	9.6179	9.64937	0.948316	9.60115	0.995049	0.666667	0.985744	0.948316	
372.912	9.69326	9.62165	9.65215	0.949374	9.60541	0.995201	0.666667	0.986182	0.949374	
375.497	9.69469	9.62528	9.65485	0.95041	9.60954	0.995348	0.666667	0.986606	0.95041	
378.082	9.69608	9.6288	9.65746	0.951425	9.61355	0.995491	0.666667	0.987017	0.951425	
379.692	9.69693	9.63094	9.65905	0.952046	9.61598	0.995578	0.666667	0.987267	0.952046	
381.302	9.69776	9.63304	9.66061	0.95266	9.61837	0.995663	0.666667	0.987512	0.95266	
382.911	9.69857	9.63509	9.66214	0.953266	9.6207	0.995746	0.666667	0.987752	0.953266	
385.001	9.6996	9.6377	9.66407	0.954041	9.62367	0.995852	0.666667	0.988057	0.954041	
387.091	9.70061	9.64025	9.66596	0.954803	9.62657	0.995955	0.666667	0.988354	0.954803	
389.181	9.70159	9.64273	9.66781	0.955552	9.62939	0.996056	0.666667	0.988644	0.955552	
397.724	9.70535	9.65226	9.67487	0.958488	9.64022	0.996442	0.666667	0.989756	0.958488	
406.267	9.70874	9.66084	9.68125	0.96123	9.64999	0.99679	0.666667	0.990759	0.96123	
408.403	9.70953	9.66286	9.68275	0.961887	9.65228	0.996872	0.666667	0.990994	0.961887	
410.539	9.71031	9.66482	9.6842	0.962533	9.65451	0.996952	0.666667	0.991223	0.962533	
412.674	9.71106	9.66673	9.68562	0.963168	9.65668	0.997029	0.666667	0.991446	0.963168	
414.81	9.7118	9.6686	9.687	0.963792	9.6588	0.997105	0.666667	0.991664	0.963792	
416.447	9.71235	9.66999	9.68804	0.964263	9.66039	0.997161	0.666667	0.991827	0.964263	
418.083	9.71289	9.67136	9.68905	0.964727	9.66195	0.997217	0.666667	0.991986	0.964727	
419.719	9.71342	9.6727	9.69005	0.965186	9.66347	0.997271	0.666667	0.992143	0.965186	
422.447	9.71428	9.67488	9.69167	0.965937	9.66595	0.99736	0.666667	0.992397	0.965937	
425.174	9.71511	9.67699	9.69323	0.966673	9.66834	0.997445	0.666667	0.992643	0.966673	
427.901	9.71592	9.67903	9.69474	0.967392	9.67066	0.997528	0.666667	0.992881	0.967392	
439.522	9.71907	9.687	9.70066	0.970286	9.67973	0.997851	0.666667	0.993812	0.970286	
442.427	9.71979	9.68883	9.70201	0.970969	9.6818	0.997925	0.666667	0.994025	0.970969	
445.332	9.72049	9.69059	9.70332	0.971636	9.68381	0.997996	0.666667	0.994231	0.971636	
448.237	9.72116	9.69229	9.70459	0.972288	9.68574	0.998065	0.666667	0.99443	0.972288	
451.143	9.72181	9.69393	9.70581	0.972924	9.68761	0.998132	0.666667	0.994621	0.972924	
452.755	9.72216	9.69482	9.70646	0.973271	9.68862	0.998168	0.666667	0.994725	0.973271	
454.368	9.7225	9.69569	9.70711	0.973614	9.68961	0.998203	0.666667	0.994827	0.973614	
455.981	9.72284	9.69654	9.70774	0.973952	9.69058	0.998238	0.666667	0.994926	0.973952	
457.82	9.72321	9.6975	9.70845	0.974333	9.69167	0.998277	0.666667	0.995038	0.974333	
459.66	9.72358	9.69843	9.70914	0.974708	9.69273	0.998314	0.666667	0.995146	0.974708	
461.5	9.72394	9.69934	9.70982	0.975077	9.69376	0.998351	0.666667	0.995253	0.975077	
470.192	9.72554	9.70339	9.71283	0.976751	9.69837	0.998515	0.666667	0.995725	0.976751	
478.885	9.72698	9.70703	9.71553	0.978313	9.70251	0.998663	0.666667	0.996151	0.978313	
481.058	9.72732	9.70788	9.71616	0.978687	9.70348	0.998698	0.666667	0.996251	0.978687	
483.231	9.72764	9.70871	9.71678	0.979054	9.70442	0.998731	0.666667	0.996347	0.979054	
485.404	9.72796	9.70952	9.71738	0.979415	9.70534	0.998764	0.666667	0.996442	0.979415	
487.577	9.72828	9.71031	9.71797	0.97977	9.70624	0.998796	0.666667	0.996534	0.97977	
489.21	9.7285	9.71089	9.7184	0.980033	9.7069	0.99882	0.666667	0.996602	0.980033	
490.843	9.72873	9.71146	9.71882	0.980292	9.70755	0.998843	0.666667	0.996668	0.980292	
492.476	9.72895	9.71202	9.71923	0.980548	9.70818	0.998865	0.666667	0.996733	0.980548	
